Wavelength,Excitation,Emission
300,16.96052,0
301,16.92219,0
302,16.96052,0
303,16.99885,0
304,17.05634,0
305,17.07551,0
306,17.11384,0
307,17.22882,0
308,17.32465,0
309,17.42047,0
310,17.55462,0
311,17.66961,0
312,17.78459,0
313,17.91874,0
314,17.9954,0
315,18.07206,0
316,18.22537,0
317,18.28287,0
318,18.34036,0
319,18.35952,0
320,18.41702,0
321,18.43618,0
322,18.45535,0
323,18.49368,0
324,18.532,0
325,18.60866,0
326,18.62783,0
327,18.64699,0
328,18.72365,0
329,18.78114,0
330,18.83864,0
331,18.78114,0
332,18.72365,0
333,18.68532,0
334,18.5895,0
335,18.49368,0
336,18.43618,0
337,18.2637,0
338,18.14872,0
339,18.01456,0
340,17.78459,0
341,17.65044,0
342,17.49713,0
343,17.34381,0
344,17.24799,0
345,17.20966,0
346,17.07551,0
347,16.94136,0
348,16.88386,0
349,16.8647,0
350,16.82637,0
351,16.80721,0
352,16.74971,0
353,16.76888,0
354,16.82637,0
355,16.90303,0
356,16.96052,0
357,16.99885,0
358,17.133,0
359,17.20966,0
360,17.36297,0
361,17.66961,0
362,17.88041,0
363,18.14872,0
364,18.532,0
365,18.8578,0
366,19.22192,0
367,19.83519,0
368,20.37179,0
369,20.87007,0
370,21.69414,0
371,22.38406,0
372,23.09314,0
373,24.10885,0
374,24.87543,0
375,25.64201,0
376,26.84937,0
377,27.73093,0
378,28.61249,0
379,29.87735,0
380,30.85473,0
381,31.85128,0
382,33.21196,0
383,34.20851,0
384,35.26255,0
385,36.71905,0
386,37.84975,0
387,38.98045,0
388,40.60943,0
389,41.83595,0
390,43.10081,0
391,44.8831,0
392,46.26294,0
393,47.6811,0
394,49.65504,0
395,51.14987,0
396,52.68302,0
397,54.82944,0
398,56.42009,0
399,58.01073,0
400,60.19548,0
401,61.80529,0
402,63.43427,0
403,65.61901,0
404,67.20966,0
405,68.80031,0
406,70.96589,0
407,72.47987,0
408,73.91721,0
409,75.6995,0
410,76.96436,0
411,78.15255,0
412,79.72404,0
413,80.77808,0
414,81.81296,0
415,83.17363,0
416,84.13185,0
417,85.07091,0
418,86.33576,0
419,87.25565,0
420,88.17554,0
421,89.4404,0
422,90.34113,0
423,91.26102,0
424,92.52587,0
425,93.44576,0
426,94.32732,0
427,95.4772,0
428,96.32043,0
429,97.06784,0
430,98.0069,0
431,98.62016,0
432,99.15677,0
433,99.6742,0
434,99.90418,0
435,100,0
436,99.92334,0
437,99.6742,0
438,99.31007,0
439,98.5435,0
440,97.79609,0
441,96.8762,0
442,95.34304,0
443,94.03986,0
444,92.60253,0
445,90.43694,0
446,88.75047,0
447,86.96819,0
448,84.41932,0
449,82.48371,0
450,80.49061,0.64038832
451,77.61594,0.680489948
452,75.48869,0.721324034
453,73.32311,0.753741219
454,70.29514,0.769529046
455,68.01456,0.796722506
456,65.73399,0.868652558
457,62.6102,0.883301752
458,60.32963,0.904739258
459,57.9724,0.98203332
460,54.88693,1.031167794
461,52.60637,1.09781449
462,50.30663,1.149043528
463,47.33614,1.192583678
464,45.18973,1.239099741
465,43.00498,1.321639105
466,40.22614,1.361507865
467,38.17555,1.414085428
468,36.12495,1.481347429
469,33.59525,1.570148409
470,31.81295,1.602507032
471,30.03066,1.652480428
472,27.82675,1.743549739
473,26.19778,1.829862634
474,24.60713,1.908473821
475,22.67152,2.048869177
476,21.25335,2.101300338
477,19.87351,2.212625924
478,18.14872,2.369239404
479,16.94136,2.533932034
480,15.75316,2.691983771
481,14.43082,2.880740801
482,13.49176,3.053042149
483,12.57187,3.308297337
484,11.51782,3.466371452
485,10.77041,3.664112074
486,10.023,3.808850277
487,9.160598,3.999216784
488,8.566501,4.247167951
489,7.991568,4.414383757
490,7.301648,4.581836
491,6.822537,4.695328501
492,6.343427,4.837400862
493,5.806823,5.00832758
494,5.423534,5.161418682
495,5.021081,5.29528809
496,4.599463,5.439529413
497,4.292832,5.618788811
498,3.986202,5.747554145
499,3.641242,5.930117514
500,3.392104,6.071049241
501,3.162131,6.239445099
502,2.893829,6.388424713
503,2.68302,6.604929063
504,2.51054,6.751064418
505,2.280567,7.027453305
506,2.127252,7.3146319
507,1.973936,7.486219914
508,1.820621,7.788099388
509,1.705634,8.13497684
510,1.609812,8.3580376
511,1.494826,8.603536155
512,1.418168,8.914712261
513,1.322346,9.198482646
514,1.226524,9.485043757
515,1.149866,9.88927517
516,1.073208,10.21751333
517,0.9965504,10.54274828
518,0.9198927,10.89831498
519,0.8623993,11.30136119
520,0.8240706,11.76877683
521,0.7857417,12.16530301
522,0.7282484,12.56532939
523,0.7090839,12.93424856
524,0.6707551,13.55212774
525,0.6515906,13.84390432
526,0.6132618,14.36021724
527,0.5557685,14.84104358
528,0.536604,15.34168318
529,0.5174397,15.86374264
530,0.4791107,16.28520178
531,0.4407819,16.67649086
532,0.4216175,17.07963353
533,0.402453,17.65826869
534,0.3832886,18.45176859
535,0.3641242,19.09215145
536,0.3257953,19.60795087
537,0.3066309,20.15413095
538,0.2874665,20.72348384
539,0.2491376,21.36913365
540,0.2299732,21.96656244
541,0.2108087,22.39961923
542,0.1916443,23.35288809
543,0.1533154,24.10637074
544,0.134151,24.52341976
545,0.134151,25.11252298
546,0.1149866,25.5538353
547,0.0767,26.41411116
548,0.0958,26.97525489
549,0.0767,27.83413427
550,0.0574933,28.27936971
551,0,29.2195819
552,0,29.97178881
553,0,30.84895014
554,0,31.29544276
555,0,32.17265675
556,0,32.87652662
557,0,33.74981455
558,0,34.48181862
559,0,35.314424
560,0,35.96425303
561,0,36.82323627
562,0,37.62376124
563,0,38.58761405
564,0,39.55185102
565,0,40.65715158
566,0,41.52514803
567,0,42.48334844
568,0,43.2014043
569,0,44.06511704
570,0,45.47305814
571,0,46.37944309
572,0,47.50306542
573,0,48.79069421
574,0,49.63458076
575,0,50.57091018
576,0,51.79330468
577,0,52.74543827
578,0,53.33529938
579,0,54.48491896
580,0,55.7062298
581,0,57.31109887
582,0,58.25884981
583,0,59.55088012
584,0,60.31254069
585,0,61.58215309
586,0,62.32646489
587,0,63.37277362
588,0,64.27519621
589,0,65.92074055
590,0,66.91141061
591,0,67.79670541
592,0,68.9234746
593,0,69.76198342
594,0,70.91772548
595,0,72.10177471
596,0,73.23722882
597,0,74.28651429
598,0,75.31571943
599,0,76.42027227
600,0,77.54203729
601,0,78.21196865
602,0,79.04594487
603,0,80.35831633
604,0,80.94244737
605,0,82.11776404
606,0,82.96030872
607,0,84.58692186
608,0,85.30137142
609,0,85.60005069
610,0,86.15506058
611,0,86.67814018
612,0,87.83656067
613,0,89.03494479
614,0,89.35648639
615,0,90.89044807
616,0,91.2097081
617,0,91.96860713
618,0,92.21580377
619,0,92.82012479
620,0,93.16268469
621,0,93.74440619
622,0,94.11623145
623,0,95.25600597
624,0,95.05709961
625,0,96.27594782
626,0,96.96216079
627,0,96.83794177
628,0,97.82595912
629,0,97.88520577
630,0,97.69705577
631,0,99.06140277
632,0,99.18423618
633,0,97.94418582
634,0,98.8943002
635,0,98.63921127
636,0,97.92930578
637,0,99.26833129
638,0,98.65854189
639,0,100
640,0,99.29917082
641,0,98.73463955
642,0,98.61210509
643,0,98.69749725
644,0,98.73284142
645,0,97.91506391
646,0,98.25289879
647,0,97.89808846
648,0,97.67038324
649,0,97.26161302
650,0,97.09420247
651,0,97.23207985
652,0,97.34057028
653,0,97.32301897
654,0,97.06317262
655,0,97.38342422
656,0,97.25893186
657,0,96.76914606
658,0,96.97649613
659,0,96.68174547
660,0,96.28504583
661,0,95.63138149
662,0,94.75160241
663,0,94.4669945
664,0,96.05266336
665,0,94.0956654
666,0,93.87655115
667,0,92.09667195
668,0,92.56309456
669,0,91.59323529
670,0,92.06142964
671,0,89.75445034
672,0,89.22533575
673,0,88.4282497
674,0,88.45713682
675,0,86.49465718
676,0,86.56528521
677,0,84.18767472
678,0,83.80480452
679,0,81.96190833
680,0,81.22356705
681,0,81.02801123
682,0,79.24301976
683,0,78.56131158
684,0,77.63281621
685,0,77.17192554
686,0,76.07214793
687,0,75.09317017
688,0,74.08116218
689,0,73.24205884
690,0,71.19432168
691,0,69.78061253
692,0,69.10262634
693,0,67.65950785
694,0,66.44689818
695,0,65.86899765
696,0,63.99602221
697,0,63.33554998
698,0,61.0636496
699,0,59.69705824
700,0,59.37720463
701,0,57.88990318
702,0,56.48979723
703,0,55.63300019
704,0,54.10350724
705,0,53.91466181
706,0,52.09447924
707,0,51.25677178
708,0,49.94941197
709,0,48.71872765
710,0,47.91346608
711,0,45.18036285
712,0,44.4729315
713,0,44.15565521
714,0,43.74695756
715,0,41.72934623
716,0,41.04312715
717,0,39.6777818
718,0,39.70994376
719,0,38.22707455
720,0,36.97851585
721,0,35.9308315
722,0,35.02332634
723,0,34.13725544
724,0,33.74842347
725,0,33.20718216
726,0,32.47257336
727,0,31.82167888
728,0,31.09315837
729,0,30.62251576
730,0,30.2317881
731,0,29.08809058
732,0,29.56166458
733,0,28.48582851
734,0,27.39389976
735,0,26.88122318
736,0,26.1711733
737,0,25.68817624
738,0,25.81842692
739,0,25.00203138
740,0,24.45263876
741,0,24.25780407
742,0,23.87573668
743,0,23.17106888
744,0,22.59674541
745,0,22.24978197
746,0,21.89667451
747,0,21.43369648
748,0,20.79800534
749,0,20.55778269
750,0,19.94202856
751,0,19.32684988
752,0,19.42678615
753,0,18.62709452
754,0,18.8306963
755,0,18.04434826
756,0,16.90103982
757,0,16.74020135
758,0,16.46160337
759,0,16.55304744
760,0,15.85885115
761,0,15.75544548
762,0,15.28928885
763,0,15.13680719
764,0,14.59968666
765,0,14.14202822
766,0,14.06724183
767,0,13.07602934
768,0,13.56524514
769,0,13.12185018
770,0,12.87347812
771,0,12.572884
772,0,12.18476231
773,0,12.08306857
774,0,12.11417657
775,0,11.46337874
776,0,10.83099985
777,0,10.79837304
778,0,10.87634595
779,0,10.99794833
780,0,10.58228405
781,0,9.845357352
782,0,9.649360837
783,0,9.264944577
784,0,9.481097226
785,0,8.976977521
786,0,8.812652834
787,0,8.587243252
788,0,8.569372564
789,0,8.544448266
790,0,8.284093176
791,0,7.929534056
792,0,7.476586688
793,0,7.981422331
794,0,7.925464389
795,0,7.537348055
796,0,7.592545321
797,0,6.840294592
798,0,6.396551171
799,0,7.220715288
800,0,7.095972378
801,0,0
802,0,0
803,0,0
804,0,0
805,0,0
806,0,0
807,0,0
808,0,0
809,0,0
810,0,0
811,0,0
812,0,0
813,0,0
814,0,0
815,0,0
816,0,0
817,0,0
818,0,0
819,0,0
820,0,0
821,0,0
822,0,0
823,0,0
824,0,0
825,0,0
826,0,0
827,0,0
828,0,0
829,0,0
830,0,0
831,0,0
832,0,0
833,0,0
834,0,0
835,0,0
836,0,0
837,0,0
838,0,0
839,0,0
840,0,0
841,0,0
842,0,0
843,0,0
844,0,0
845,0,0
846,0,0
847,0,0
848,0,0
849,0,0
850,0,0
851,0,0
852,0,0
853,0,0
854,0,0
855,0,0
856,0,0
857,0,0
858,0,0
859,0,0
860,0,0
861,0,0
862,0,0
863,0,0
864,0,0
865,0,0
866,0,0
867,0,0
868,0,0
869,0,0
870,0,0
871,0,0
872,0,0
873,0,0
874,0,0
875,0,0
876,0,0
877,0,0
878,0,0
879,0,0
880,0,0
881,0,0
882,0,0
883,0,0
884,0,0
885,0,0
886,0,0
887,0,0
888,0,0
889,0,0
890,0,0
891,0,0
892,0,0
893,0,0
894,0,0
895,0,0
896,0,0
897,0,0
898,0,0
899,0,0
900,0,0
901,0,0
902,0,0
903,0,0
904,0,0
905,0,0
906,0,0
907,0,0
908,0,0
909,0,0
910,0,0
911,0,0
912,0,0
913,0,0
914,0,0
915,0,0
916,0,0
917,0,0
918,0,0
919,0,0
920,0,0
921,0,0
922,0,0
923,0,0
924,0,0
925,0,0
926,0,0
927,0,0
928,0,0
929,0,0
930,0,0
931,0,0
932,0,0
933,0,0
934,0,0
935,0,0
936,0,0
937,0,0
938,0,0
939,0,0
940,0,0
941,0,0
942,0,0
943,0,0
944,0,0
945,0,0
946,0,0
947,0,0
948,0,0
949,0,0
